# SYSTEM: CrFeCoNi
# Method: Classical MD

# NOTES:
# t: time
# ps: Picoseconds
# N_FP: Number of frenkel pairs
# Each two consecutive columns represents a result from a single simulation repeated with different Primary Knock-on Atom (PKA) directions and different high entropy alloy (HEA) structure

#t(ps)             N_def  t(ps)              N_def  t(ps)              N_def  t(ps)              N_def  t(ps)              N_def  t(ps)              N_def  t(ps)              N_def  t(ps)              N_def
0                  0      0                  0      0                  0      0                  2      0                  0      0                  0      0                  0      0                  0
0.002479000000001  21     0.002478           20     0.002479999999998  21     0.002481           23     0.002485           19     0.002479999999998  20     0.002476999999999  19     0.002479000000001  21
0.004975999999999  28     0.005082000000002  32     0.005302           49     0.005020999999999  41     0.004996999999999  38     0.005075000000002  43     0.005085000000001  49     0.005011           32
0.007489           50     0.007911           48     0.008789           65     0.007641           66     0.007567000000002  61     0.007864999999999  66     0.007961000000002  66     0.007659           72
0.010023           67     0.011126000000001  112    0.012353999999999  127    0.010435000000001  101    0.010252999999999  91     0.010940000000002  111    0.010869           143    0.010345999999999  106
0.012578999999999  104    0.015084999999999  161    0.016158000000001  182    0.013843000000001  163    0.013076000000002  128    0.014122000000001  163    0.013848           254    0.013055000000001  172
0.015156000000001  134    0.019200000000002  257    0.020506000000001  311    0.017788           292    0.015951999999999  188    0.017313000000002  199    0.016848           428    0.01578            220
0.017765000000001  178    0.023720000000001  417    0.025386999999999  521    0.022145999999999  435    0.018836           254    0.020530000000001  291    0.019866           703    0.018526000000001  301
0.020378000000001  219    0.028495           646    0.030652           801    0.026814000000002  669    0.021735           327    0.023778           398    0.022908999999999  1200   0.021280000000001  391
0.023002000000002  281    0.03361            944    0.03651            1245   0.031842000000001  968    0.024646000000001  415    0.027080000000002  509    0.025993           2013   0.024042999999999  511
0.025639000000002  328    0.040552000000002  1460   0.042978000000002  1800   0.036926999999999  1364   0.027570000000001  570    0.030646999999998  687    0.029140999999999  3344   0.026817999999999  665
0.028279999999999  393    0.048006999999998  2226   0.050795999999998  2703   0.042079000000001  1864   0.030508999999999  684    0.034331000000002  867    0.032748000000002  5090   0.029612           837
0.030946           482    0.056737999999999  3401   0.059063999999999  3911   0.048622000000002  2627   0.033804           846    0.038238           1086   0.036674000000002  7539   0.032429000000001  1075
0.033715000000001  562    0.067021000000001  5256   0.073232000000001  6616   0.058841999999999  4087   0.037103999999999  1010   0.042411000000001  1427   0.040699           10893  0.035388999999999  1395
0.036759           703    0.078848000000001  7769   0.093619           11586  0.072237999999999  6577   0.040430000000001  1208   0.046648999999999  1714   0.045003000000001  15455  0.038377000000001  1729
0.039846000000001  833    0.092573000000002  11174  0.116530999999998  17796  0.094321999999998  11835  0.043773000000002  1409   0.051179999999999  2206   0.050429999999999  22727  0.041409999999999  2273
0.042940000000002  965    0.109719999999999  15890  0.150790000000001  26669  0.135615999999999  23125  0.047143999999999  1679   0.056228999999998  2720   0.056767000000001  35771  0.044632           3078
0.046140000000001  1132   0.131167999999999  21835  0.235690999999999  40453  0.231377999999999  40837  0.050640000000001  1990   0.062498999999999  3641   0.063918999999999  42309  0.047948000000002  4127
0.049707000000002  1341   0.164366999999999  30213  0.422377000000001  40566  0.381824999999999  40093  0.054202           2336   0.069607999999999  4759   0.071843000000001  40374  0.051435999999999  5515
0.053384000000001  1600   0.255334000000001  42859  0.649163999999999  39986  0.595369000000002  39465  0.057945           2717   0.077750000000002  6363   0.081047000000002  38458  0.055458999999999  7389
0.057206999999998  1907   0.474895           40849  0.905266999999999  39486  0.838079           38894  0.062128000000001  3174   0.088425000000001  8726   0.093495999999998  36904  0.059830999999999  10220
0.061674           2310   0.718371999999999  40009  1.166912           38296  1.098201           38002  0.068099           3950   0.100480000000001  11777  0.112268           34892  0.064135           15135
0.066807000000001  2793   0.978664999999999  38339  1.433688           36348  1.374385           36652  0.075498           5049   0.114350999999999  15708  0.145025           32875  0.069946999999999  23952
0.073374999999999  3646   1.24689            37541  1.715982           34560  1.652301           34751  0.085721           6868   0.131339000000001  20687  0.224139000000001  30702  0.077614000000001  38938
0.080959           4750   1.532783           36018  2.00386            32885  1.940609           32871  0.099931000000002  9912   0.168416000000001  30775  0.395244000000002  28307  0.085775000000002  40330
0.091723000000002  6665   1.82934            33892  2.308792           30812  2.232016           31269  0.123636000000001  15987  0.254988000000001  44172  0.619225           26808  0.094415000000002  39431
0.108287000000001  10506  2.142589           31928  2.614572           29364  2.523146           29326  0.161116           25748  0.470268999999998  42218  0.877330000000001  25128  0.103282           39087
0.132925           17225  2.447303           30004  2.934121           27762  2.822416           27669  0.235683000000002  38321  0.726286000000002  40344  1.142265           23129  0.112767000000002  37267
0.171697000000002  27704  2.772987           28085  3.256491           25750  3.122023           26670  0.418448999999999  39231  0.995193           37284  1.42308            21939  0.122613000000001  35334
0.251408000000001  40902  3.108397           26339  3.589324           23966  3.434046           25015  0.630354000000001  38639  1.289067           35073  1.69942            20181  0.132874000000001  33575
0.426546999999999  40527  3.452199           24269  3.932322           22203  3.75878            23646  0.878796000000001  37652  1.604972           32255  1.989396           18578  0.145043999999999  31276
0.659089999999999  39345  3.795832           22580  4.28956            20233  4.082688           22066  1.144195           36138  1.927325           29249  2.280219           16956  0.159544           29547
0.915222           38202  4.155937           20752  4.647537           18770  4.417757           20812  1.411704           33849  2.26243            26535  2.582916           15458  0.180174999999998  27314
1.180984           36464  4.516638           19167  5.004869           17238  4.760358           19221  1.681103           31228  2.613139           24126  2.901142           14004  0.220208           25475
1.467417           34019  4.881131           16690  5.376782           15524  5.101524           18365  1.954025           29238  2.969167           21743  3.223985           12913  0.342673999999999  23633
1.758612           31515  5.245213           15348  5.761465           14420  5.448457           16978  2.232466           26942  3.340035           19009  3.548179           11295  0.577370999999999  21558
2.048377           29461  5.61125            13601  6.143154           13032  5.795644           16165  2.518798           25180  3.711778           16819  3.897659           10080  0.840382999999999  19672
2.359097           27666  5.994527           11830  6.529531           11283  6.164085           14791  2.815853           23370  4.092784           14468  4.233533           8907   1.104606           17800
2.666487           25895  6.374281           10384  6.910825           10270  6.535387           13346  3.124617           21264  4.479695           12426  4.598088           8241   1.395069           16166
2.989599           24453  6.758787           8750   7.316187           9119   6.908846           12291  3.436794           19690  4.868417           10892  4.957488           7395   1.696423           14880
3.30888            22699  7.132468           7949   7.730524           8317   7.289366           11559  3.745134           18134  5.264914           9032   5.33405            6752   2.013059           12936
3.633389           20997  7.528532           7145   8.148648           7481   7.679674           11015  4.079925           16583  5.6761             7815   5.698705           6133   2.337748           11531
3.97308            19728  7.922375           6542   8.571231           6800   8.069161           10322  4.4106             14967  6.101129           6436   6.103849           5643   2.666614           10267
4.319526           17875  8.340227           6037   9.011633           6369   8.466869           9770   4.746593           13525  6.527589           5700   6.506567           4966   2.996383           8708
4.678192           16641  8.771122           5527   9.459879           5348   8.886008           8760   5.097773           12479  6.960389           4764   6.905086           4549   3.345123           7486
5.042562           15083  9.222875           4880   9.921438           4698   9.299595           8125   5.455895           11080  7.405215           4605   7.325195           3935   3.695692           6650
5.414062           13773  9.682212           4595   10.392111          4605   9.724782           7369   5.815315           10210  7.886531           4338   7.743915           3874   4.058528           5815
5.7997             12329  10.157897          4019   10.871891          4110   10.150104          6736   6.190317           9410   8.381588           4170   8.176507           3430   4.415              5074
6.190795           11137  10.631729          3558   11.354505          3648   10.571853          6153   6.564962           8244   8.894349           3903   8.620591           3236   4.790394           4447
6.589325           9534   11.110533          3216   11.847677          3468   11.017104          5646   6.94298            7441   9.414408           3763   9.042459           3237   5.173677           4171
6.987819           8599   11.597589          2861   12.351021          3569   11.45406           5112   7.337116           7007   9.926356           3473   9.514325           3382   5.547931           3802
7.403615           7951   12.083228          2799   12.878572          3676   11.896215          4796   7.731113           6535   10.464993          3297   9.998796           3269   5.926252           3454
7.833573           7119   12.594697          2994   13.426666          3553   12.369714          4788   8.148448           5792   11.007403          3135   10.494511          3027   6.316733           3067
8.261516           6400   13.135144          2997   13.985688          3233   12.868512          4746   8.57268            5244   11.551656          2928   11.00171           3000   6.709457           2884
8.702234           5648   13.694423          2873   14.534828          3066   13.390118          4797   9.016634           4509   12.107767          3012   11.525101          2922   7.115951           2704
9.136615           5199   14.239046          2623   15.08824           3173   13.92985           4452   9.46864            3911   12.663543          2985   12.067845          2963   7.532784           2664
9.591018           4567   14.770902          2579   15.677315          3140   14.458968          4163   9.924736           3496   13.258707          3024   12.621772          2926   7.963454           2682
10.044839          4159   15.323484          2515   16.281691          3117   14.98271           4117   10.399093          3149   13.873387          2976   13.190598          2837   8.392032           2728
10.511267          3550   15.910025          2565   16.861544          3023   15.545069          4130   10.896137          3037   14.479885          2883   13.772582          2856   8.829694           2617
10.988471          3290   16.507291          2466   17.455976          2921   16.126133          4213   11.401279          2717   15.09248           2923   14.355682          2791   9.312329           2574
11.47899           3086   16.507291          2466   18.052298          2958   16.712724          3819   11.916091          2624   15.71271           2971   14.930283          2835   9.800398           2570
11.974181          3000   16.507291          2466   18.651708          2976   17.286293          3766   12.461289          2597   16.327958          2957   15.526391          2784   10.309719          2573
12.48252           3009   16.507291          2466   19.26879           2870   17.876571          3766   13.028218          2683   16.973977          2798   16.153501          2826   10.820584          2541
13.028198          2957   16.507291          2466   19.915369          2967   18.478655          3654   13.615265          2674   17.6124            2848   16.783481          2831   11.347001          2487
13.604712          2992   16.507291          2466   20.566136          2943   19.085492          3751   14.197262          2520   18.24558           2803   17.401696          2773   11.849561          2463
14.18648           2827   16.507291          2466   21.226349          2926   19.704243          3770   14.790644          2422   18.888833          2735   18.030553          2863   12.400129          2408
14.754637          2721   16.507291          2466   21.874073          2939   20.353435          3669   15.393964          2544   19.53978           2856   18.665524          2703   12.97505           2447
15.340735          2716   16.507291          2466   22.53288           2855   21.006373          3715   16.03141           2585   20.213297          2862   19.304038          2744   13.567669          2443
15.945493          2829   16.507291          2466   23.190123          2809   21.65004           3666   16.679204          2450   20.890134          2780   19.957445          2719   14.14701           2493
16.55713           2659   16.507291          2466   23.862048          2824   22.283957          3621   17.30069           2435   21.567205          2786   20.624519          2738   14.741967          2460
17.138947          2605   16.507291          2466   24.548471          2865   22.944365          3679   17.942913          2438   22.24929           2745   21.287375          2756   15.352926          2435
17.759162          2538   16.507291          2466   25.219379          2852   23.608012          3638   18.595688          2476   22.927068          2763   21.951189          2700   15.95469           2390
18.385698          2609   16.507291          2466   25.90627           2814   24.280237          3659   19.246777          2467   23.616454          2733   22.627705          2756   16.571702          2381
19.026147          2546   16.507291          2466   26.591974          2854   24.96329           3620   19.919101          2564   24.313114          2788   23.30359           2787   17.211712          2403
19.676426          2577   16.507291          2466   27.291085          2901   25.634102          3560   20.603556          2460   25.007164          2780   23.979773          2753   17.833248          2432
20.344304          2604   16.507291          2466   27.996035          2871   26.31714           3669   21.28578           2444   25.706912          2722   24.674273          2705   18.479906          2412
21.009702          2583   16.507291          2466   28.690423          2838   27.007084          3642   21.952121          2356   26.413525          2758   25.365316          2660   19.139379          2398
21.677041          2577   16.507291          2466   29.374693          2797   27.712322          3696   22.618861          2378   27.080033          2726   26.060272          2734   19.808018          2349
22.345238          2537   16.507291          2466   30.067544          2822   28.411874          3655   23.307124          2389   27.790872          2710   26.755072          2709   20.491021          2397
23.015007          2565   16.507291          2466   30.769147          2763   29.096725          3574   24.00139           2351   28.501291          2688   27.460026          2754   21.170313          2408
23.685606          2539   16.507291          2466   31.486785          2782   29.784122          3682   24.697059          2435   29.197199          2689   28.173273          2731   21.852096          2378
