# SYSTEM: CrFeCoNi
# Method: l2t-MD

# NOTES:
# t: time
# ps: Picoseconds
# N_FP: Number of defected atoms
# Each two consecutive columns represents a result from a single simulation repeated with different Primary Knock-on Atom (PKA) directions and different high entropy alloy (HEA) structure

#t(ps)    N_def  t(ps)     N_def  t(ps)     N_def  t(ps)     N_def  t(ps)     N_def  t(ps)     N_def  t(ps)     N_def  t(ps)     N_def
0         0      0         0      0         0      0         0      0         0      0         0      0         0      0         0
0.002483  19     0.002482  20     0.00293   39     0.002557  33     0.002489  25     0.002481  20     0.00248   20     0.002483  18
0.004976  27     0.005005  36     0.006198  50     0.005193  40     0.004988  32     0.004976  21     0.004975  20     0.004974  27
0.007573  53     0.007546  58     0.009702  98     0.007846  52     0.007553  57     0.007564  56     0.007505  46     0.007477  38
0.010208  81     0.010115  84     0.013508  175    0.010526  106    0.01013   86     0.010168  92     0.010045  59     0.009985  58
0.012882  128    0.012693  102    0.017401  267    0.01334   136    0.012723  104    0.012856  127    0.012597  92     0.012499  65
0.015661  175    0.015301  143    0.021469  401    0.016399  200    0.015455  142    0.015639  167    0.015154  117    0.015021  73
0.018595  238    0.017883  189    0.026746  667    0.01948   270    0.018323  193    0.018571  226    0.017726  143    0.017551  112
0.021628  306    0.020381  243    0.033488  1068   0.022964  376    0.021276  264    0.021814  303    0.020299  178    0.020091  164
0.024698  379    0.022929  289    0.041439  1727   0.026943  558    0.024401  379    0.025403  455    0.022885  218    0.022635  210
0.0279    491    0.025523  333    0.050345  2824   0.031862  796    0.027558  482    0.02906   606    0.025474  278    0.025186  232
0.032501  695    0.028153  434    0.059904  4310   0.037786  1204   0.030728  613    0.032769  799    0.028076  317    0.027746  269
0.037399  909    0.030818  513    0.069935  6171   0.044434  1776   0.033909  748    0.036857  1038   0.030689  358    0.03031   313
0.043246  1319   0.033546  621    0.080435  8362   0.053246  2764   0.037149  903    0.041834  1390   0.033326  419    0.032881  356
0.05082   1945   0.036306  703    0.091196  10749  0.065933  4734   0.040597  1123   0.047181  1833   0.035974  477    0.035464  417
0.062296  3263   0.039165  826    0.102363  13422  0.083891  8439   0.044563  1419   0.053027  2467   0.038637  546    0.038066  480
0.078782  5963   0.04206   999    0.113916  16152  0.108176  14357  0.048649  1734   0.059859  3334   0.041334  635    0.040703  546
0.098328  9968   0.044977  1133   0.126053  19047  0.16017   26631  0.052864  2088   0.066849  4385   0.0441    720    0.043399  606
0.126393  16294  0.048378  1353   0.139009  21999  0.309817  37273  0.057915  2653   0.07395   5638   0.046898  809    0.046119  697
0.17977   26779  0.051848  1600   0.152933  24943  0.52808   36109  0.063626  3363   0.081502  7115   0.050252  938    0.048864  771
0.308316  33780  0.055345  1882   0.169141  28179  0.768338  35503  0.07051   4371   0.089441  8846   0.054196  1101   0.051789  872
0.534289  31840  0.058995  2212   0.195703  32258  1.03158   34024  0.078434  5695   0.097577  10813  0.058501  1326   0.0548    995
0.786259  30896  0.06343   2634   0.273087  36709  1.3127    32535  0.089283  7947   0.10595   12701  0.06321   1595   0.058215  1171
1.07162   29140  0.068173  3148   0.464268  34264  1.60464   30497  0.105515  11705  0.114813  15041  0.068306  1980   0.061923  1315
1.35333   27224  0.073416  3791   0.703986  32809  1.90433   28150  0.130141  18085  0.124205  17350  0.073822  2433   0.067087  1624
1.65412   25012  0.080792  4822   0.96111   31036  2.21174   26371  0.194941  32653  0.134142  19764  0.079619  3015   0.072523  1965
1.96497   22792  0.089844  6339   1.23891   29045  2.52598   24810  0.345169  37759  0.146492  22738  0.085657  3663   0.078191  2460
2.28973   20877  0.099895  8326   1.53552   26447  2.85393   22631  0.590619  35328  0.16279   26439  0.092488  4644   0.084067  2997
2.62801   18988  0.11216   11058  1.83571   24098  3.19971   20813  0.858261  33516  0.185359  30880  0.101323  6016   0.090037  3667
2.97359   16963  0.126073  14469  2.13654   22462  3.55208   18630  1.15039   30899  0.220069  35952  0.112158  8076   0.096223  4466
3.31889   15053  0.145007  19359  2.46516   20672  3.91225   17449  1.45224   28151  0.308885  39163  0.128032  11626  0.1026    5341
3.67776   13267  0.176438  27302  2.80225   18771  4.27408   15684  1.75688   26298  0.546352  36754  0.150936  17514  0.109035  6392
4.05021   11653  0.255337  39457  3.14978   16833  4.65432   13794  2.06593   23758  0.808049  34532  0.191354  27958  0.115575  7493
4.43427   10156  0.468204  37352  3.51031   15055  5.03545   12137  2.40605   21696  1.08806   31954  0.272605  39697  0.122177  8709
4.82918   8781   0.738704  34492  3.88121   13163  5.42399   10551  2.76663   19182  1.39788   29225  0.456812  36603  0.129108  9994
5.23272   7610   1.01728   31249  4.26379   11531  5.83255   9540   3.12413   17037  1.7027    26753  0.731382  33093  0.136736  11608
5.65111   6448   1.2986    27839  4.65216   9919   6.24021   8180   3.49291   15164  2.02189   24229  1.03144   29789  0.145119  13225
6.06061   5846   1.60141   24710  5.05421   8061   6.66884   6969   3.87336   13453  2.35346   22143  1.34473   26576  0.155666  15243
6.47951   4678   1.91515   21713  5.47073   6533   7.09258   5971   4.26378   11131  2.69856   20307  1.66673   23305  0.169748  18160
6.90258   4009   2.24727   18845  5.88007   5088   7.52862   5359   4.66099   9108   3.04176   18314  2.01525   20113  0.188567  21878
7.34725   3581   2.58454   15974  6.3204    4136   7.97009   4669   5.07133   7453   3.3995    16463  2.37534   17275  0.223282  27703
7.8224    3325   2.92804   13699  6.74404   3296   8.43611   4100   5.49416   5865   3.74503   15178  2.74481   14415  0.331641  33896
8.29504   2944   3.28842   11649  7.20111   2895   8.91846   3817   5.91835   4713   4.11722   13618  3.11826   11698  0.5668    31044
8.8043    2682   3.66568   10242  7.70583   2752   9.42328   3347   6.35185   3898   4.5051    11822  3.51031   9821   0.822934  28209
9.34657   2680   4.05067   9038   8.23941   2462   9.94163   3049   6.82514   3113   4.8984    10501  3.90875   7887   1.10652   25550
9.91464   2603   4.43951   7865   8.78856   2407   10.4955   2915   7.33364   3029   5.29755   8996   4.31795   6483   1.38768   22921
10.4893   2474   4.85209   6763   9.3372    2316   11.0466   2821   7.87339   2993   5.70051   7501   4.74372   5509   1.68351   20166
11.0882   2409   5.27239   5910   9.92484   2159   11.6088   2719   8.42119   2770   6.1262    6516   5.17231   4569   1.99033   18083
11.6944   2371   5.69563   5263   10.5235   2187   12.1935   2709   9.00796   2759   6.56714   5702   5.61707   3995   2.31535   15941
12.311    2311   6.13485   4608   11.1291   2092   12.7995   2805   9.61221   2677   6.99468   4671   6.05791   3485   2.65583   14173
12.9488   2372   6.57734   3888   11.753    2045   13.4464   2805   10.2313   2568   7.42995   4019   6.55102   3164   3.01983   12430
13.5965   2411   7.01261   3370   12.3915   2084   14.0494   2631   10.8656   2496   7.90745   3368   7.04302   3044   3.38913   10920
14.26     2382   7.49339   3275   13.0595   2077   14.6874   2663   11.5078   2462   8.39729   2869   7.57316   2966   3.76792   9581
14.9307   2330   8.02271   3175   13.7423   2085   15.3492   2664   12.1671   2493   8.89818   2506   8.13276   2933   4.16355   8161
15.6228   2336   8.57848   3070   14.4244   2047   16.0276   2690   12.8301   2552   9.43263   2395   8.71717   2856   4.5678    7275
16.328    2331   9.15851   2957   15.1049   2036   16.7153   2667   13.5209   2531   9.98517   2238   9.30609   2741   4.98639   6024
17.0409   2315   9.75809   2923   15.8176   2087   17.4031   2680   14.2142   2500   10.5627   2141   9.90203   2692   5.41381   5059
17.7589   2245   10.3676   2911   16.5311   2057   18.0694   2570   14.898    2466   11.1605   2098   10.5338   2594   5.83606   4201
18.4845   2290   10.9935   2842   17.2442   2020   18.7864   2545   15.601    2510   11.7595   2041   11.1728   2580   6.27701   3447
19.2161   2281   11.647    2810   17.9617   1995   19.4962   2542   16.3308   2469   12.3691   2027   11.8137   2515   6.73333   2885
19.9559   2285   12.2946   2815   18.6978   1991   20.1929   2597   17.0615   2464   13.0113   2026   12.4597   2504   7.20743   2743
20.7073   2318   12.9637   2833   19.4214   2060   20.9329   2500   17.7883   2428   13.6856   2023   13.149    2501   7.72494   2591
21.458    2335   13.6598   2848   20.1615   2027   21.6464   2475   18.5135   2435   14.3321   1928   13.8366   2520   8.26767   2449
22.2057   2288   14.3679   2811   20.9085   2014   22.3818   2480   19.2413   2444   14.9544   1931   14.5275   2518   8.8356    2419
22.9544   2278   15.0606   2798   21.6522   2003   23.1184   2458   19.9798   2508   15.6517   1992   15.2232   2479   9.43254   2295
23.7022   2286   15.7772   2841   22.3998   2028   23.8625   2436   20.724    2450   16.3546   2003   15.9394   2500   10.0482   2247
24.4635   2253   16.4953   2810   23.1468   1999   24.6143   2471   21.4733   2417   17.0582   1948   16.6543   2469   10.6685   2211
25.2153   2282   17.2192   2748   23.9001   2003   25.3683   2495   22.2141   2414   17.7679   1972   17.3766   2443   11.3146   2138
25.9711   2269   17.9438   2789   24.6515   2015   26.1137   2417   22.9615   2430   18.4806   1994   18.0933   2437   11.9659   2170
26.7373   2271   18.6399   2731   25.4056   2038   26.8666   2479   23.7126   2420   19.2093   1966   18.8222   2462   12.5793   2106
27.4977   2280   19.3755   2713   26.1572   2011   27.6193   2431   24.4689   2427   19.949    1973   19.5646   2445   13.2474   2121
28.2659   2297   20.1185   2712   26.9098   1994   28.3757   2460   25.2241   2420   20.6932   1969   20.3112   2446   13.9567   2095
29.0192   2216   20.8702   2734   27.6665   1992   29.1257   2406   25.9758   2406   21.4314   1956   21.0534   2463   14.665    2050
29.777    2299   21.6147   2712   28.4236   2009   29.8706   2457   26.7344   2447   22.1742   1930   21.8026   2479   15.3642   2074
30.5381   2281   22.3627   2756   29.1758   2005   30.6285   2454   27.4888   2451   22.927    1929   22.5489   2440   16.0826   2067
31.3046   2287   23.1144   2700   29.9269   1989   31.3941   2411   28.2438   2414   23.6197   1908   23.3051   2404   16.8246   2052
32.0713   2329   23.8622   2746   30.6913   2012   32.1577   2441   28.9984   2441   24.3444   1910   24.0598   2411   17.5607   2051
32.8287   2237   24.6164   2711   31.4534   2071   32.9085   2471   29.7451   2439   25.0959   1952   24.8071   2374   18.3095   2066
33.5932   2264   25.3765   2698   32.2087   2011   33.6661   2433   30.4968   2428   25.8509   1942   25.5653   2428   19.0484   2036
34.354    2272   26.1267   2658   32.9765   2040   34.4293   2431   31.2552   2412   26.6041   1943   26.3242   2411   19.7953   2038
35.1155   2300   26.8853   2655   33.7384   1994   35.1902   2404   32.0199   2449   27.3661   1937   27.0714   2404   20.5532   2084
35.8807   2273   27.644    2748   34.493    2028   35.9494   2425   32.7837   2441   28.1148   1961   27.8372   2422   21.3045   2093
36.6494   2272   28.3996   2768   35.2624   1983   36.7084   2420   33.5514   2385   28.8717   1914   28.5974   2417   22.0629   2046
37.4186   2254   29.1543   2710   36.0239   1982   37.474    2423   34.3111   2465   29.6282   1919   29.3506   2403   22.76     2019
38.189    2240   29.9083   2674   36.7896   2001   38.2369   2421   35.0682   2415   30.3793   1908   30.1099   2411   23.5217   1982
38.9595   2267   30.6697   2734   37.558    2013   38.9989   2437   35.8244   2413   31.135    1901   30.8671   2383   24.28     1989
39.7262   2252   31.3973   2704   38.3192   2016   39.7601   2468   36.5868   2401   31.8954   1939   31.6241   2417   25.0395   2010
40.4912   2261   32.1564   2705   39.0828   2003   40.5168   2455   37.3451   2431   32.6579   1928   32.383    2427   25.7925   2030
41.2515   2272   32.9177   2727   39.8515   1979   41.2734   2401   38.1133   2423   33.4194   1916   33.1393   2450   26.5577   1992
42.0118   2239   33.6764   2730   40.6089   2007   42.0317   2424   38.8785   2436   34.1762   1915   33.8551   2420   27.3222   1998
42.7779   2250   34.4358   2663   41.3737   1992   42.7986   2451   39.6348   2432   34.9351   1931   34.6163   2387   28.0835   2016
43.5469   2253   35.1908   2686   42.1299   2007   43.5571   2390   40.3944   2386   35.6903   1895   35.3657   2375   28.8429   1980
44.3094   2247   35.95     2704   42.9002   1998   44.3212   2441   41.1553   2416   36.4522   1932   36.1181   2384   29.6045   2012
45.0816   2261   36.7149   2657   43.6633   1985   45.0778   2447   41.9217   2422   37.2129   1923   36.8762   2417   30.3649   1995
45.8492   2249   37.4708   2683   44.4255   2044   45.8296   2430   42.6847   2401   37.9761   1938   37.6366   2393   31.1369   1999
46.6198   2270   38.2332   2683   45.1876   2022   46.5885   2409   43.4467   2395   38.7369   1935   38.3973   2373   31.902    2012
47.388    2259   38.9935   2680   45.9525   1998   47.353    2416   44.2147   2408   39.4974   1953   39.1516   2374   32.6606   1977
48.1572   2290   39.7574   2694   46.7031   2009   48.1226   2370   44.9693   2415   40.2562   1906   39.9121   2377   33.4278   1963
48.9213   2283   40.52     2661   47.4684   1988   48.8844   2417   45.7302   2430   41.0119   1893   40.6731   2327   34.1911   1991
49.6872   2288   41.2827   2637   48.2231   1985   49.6545   2442   46.4889   2435   41.7751   1953   41.4408   2343   34.955    1992
50.4544   2266   42.0478   2680   48.989    1985   50.4205   2462   47.2434   2407   42.5323   1921   42.1968   2337   35.7232   1950
51.2175   2277   42.8117   2679   49.7526   1997   51.1794   2434   48.0039   2395   43.2928   1882   42.9593   2407   36.4889   1951
51.9828   2230   43.5725   2703   50.5148   1995   51.9352   2392   48.7546   2376   44.0589   1909   43.7221   2373   37.2502   1962
52.7457   2256   44.3318   2690   51.2787   1981   52.6962   2386   49.5228   2425   44.8196   1955   44.48     2376   38.0182   1985
53.5186   2241   45.092    2720   52.0417   1973   53.4598   2438   50.2855   2421   45.5839   1951   45.242    2420   38.7749   2015
54.2771   2281   45.853    2661   52.8076   1984   54.221    2454   51.0427   2454   46.3413   1951   46.0034   2386   39.5413   2022
55.043    2239   46.619    2693   53.5661   2025   54.9795   2414   51.8016   2418   47.1071   1914   46.771    2388   40.302    2024
55.7887   2228   47.3772   2650   54.3325   1998   55.738    2464   52.5736   2403   47.8742   1924   47.4679   2331   41.0614   1996
56.5532   2218   48.1386   2688   55.0922   1967   56.5041   2420   53.3342   2403   48.6344   1942   48.2231   2306   41.8312   1993
57.3204   2222   48.8978   2707   55.8523   2011   57.2716   2378   54.0939   2440   49.3939   1971   48.9848   2333   42.5938   1971
58.0811   2225   49.6656   2701   56.6246   2005   58.029    2407   54.8518   2413   50.1488   1961   49.7503   2344   43.3124   1969
58.8492   2215   50.4334   2714   57.385    2032   58.7888   2383   55.613    2432   50.9073   1964   50.5173   2329   44.0626   1935
59.6203   2224   51.1903   2711   58.1392   1989   59.554    2411   56.3794   2456   51.6709   1912   51.2764   2339   44.8251   1986
60.3945   2225   51.9595   2676   58.9029   2000   60.3159   2462   57.1389   2441   52.4296   1901   52.0456   2360   45.5847   1959
61.167    2207   52.726    2671   59.6648   2004   61.0759   2445   57.9058   2439   53.1949   1910   52.8114   2334   46.3511   1953
61.9362   2205   53.4902   2701   60.4298   2036   61.8412   2447   58.6734   2403   53.9569   1959   53.5718   2341   47.1197   1942
62.7036   2253   54.2515   2702   61.1933   1966   62.6079   2407   59.4381   2406   54.7128   1918   54.3305   2353   47.881    1940
63.4665   2185   55.016    2696   61.9531   1996   63.369    2399   60.2038   2408   55.4734   1936   55.0966   2344   48.6456   1938
64.2328   2214   55.7797   2711   62.7246   1987   64.1328   2452   60.9609   2435   56.2377   1940   55.8528   2360   49.4181   1932
65.0024   2224   56.55     2671   63.4907   2003   64.9023   2413   61.7215   2466   57.0054   1915   56.6153   2351   50.1879   1985
65.7764   2197   57.3158   2688   64.2588   2017   65.6641   2425   62.4771   2433   57.7686   1914   57.3753   2352   50.9518   1965
66.5448   2219   58.0849   2674   65.0276   1981   66.4282   2428   63.2368   2416   58.5313   1918   58.1452   2331   51.7193   1968
67.3166   2221   58.8444   2672   65.7946   1983   67.1841   2432   63.9898   2402   59.2945   1885   58.9064   2340   52.4792   1927
68.0779   2257   59.6118   2647   66.5639   1995   67.9476   2426   64.7492   2407   60.0502   1893   59.6762   2323   53.2441   1934
68.8388   2195   60.371    2681   67.3297   2006   68.7078   2412   65.5091   2388   60.815    1923   60.4391   2333   54.0097   1933
69.6018   2183   61.1327   2685   68.0971   2004   69.4713   2441   66.2627   2379   61.5773   1919   61.1962   2392   54.7736   1926
70.3689   2210   61.8906   2682   68.861    2009   70.2325   2432   67.0287   2429   62.3435   1902   61.9605   2361   55.531    1934
71.134    2224   62.6541   2668   69.6248   2043   70.9994   2409   67.7979   2402   63.1111   1880   62.7205   2316   56.2888   1942
71.9024   2202   63.4149   2689   70.3892   1986   71.7614   2413   68.5667   2431   63.8717   1951   63.471    2367   57.048    1956
72.669    2242   64.1786   2632   71.1591   1996   72.529    2438   69.331    2377   64.6377   1905   64.2328   2371   57.8176   1950
73.428    2238   64.9376   2665   71.9227   1984   73.294    2455   70.092    2435   65.3968   1940   64.9297   2329   58.58     1925
